Time	F0(Hz)	Intensity(dB) F1(Hz) F2(Hz) 
Time	F0(Hz)	Intensity(dB) F1(Hz) F2(Hz) 
Time	F0(Hz)	Intensity(dB) F1(Hz) F2(Hz) 
Time	F0(Hz)	Intensity(dB) F1(Hz) F2(Hz) 
Time	F0(Hz)	Intensity(dB) F1(Hz) F2(Hz) 
Time	F0(Hz)	Intensity(dB) F1(Hz) F2(Hz) 
Time	F0(Hz)	Intensity(dB) F1(Hz) F2(Hz) 
Time	F0(Hz)	Intensity(dB) F1(Hz) F2(Hz) 
0.01 --undefined-- --undefined-- --undefined-- --undefined--
0.02 --undefined-- --undefined-- --undefined-- --undefined--
0.03 --undefined-- --undefined-- 2558.753 2558.753
0.04 --undefined-- 7.754 2418.323 2418.323
0.05 --undefined-- 7.830 2548.204 2548.204
0.06 --undefined-- 5.460 2621.294 2621.294
0.07 --undefined-- 6.232 2620.402 2620.402
0.08 --undefined-- 7.477 2591.845 2591.845
0.09 --undefined-- 4.875 2597.684 2597.684
0.10 --undefined-- 6.295 2509.665 2509.665
0.11 --undefined-- 8.065 2544.676 2544.676
0.12 --undefined-- 5.852 2574.658 2574.658
0.13 --undefined-- 7.770 2718.432 2718.432
0.14 --undefined-- 7.429 2901.726 2901.726
0.15 --undefined-- 4.799 1576.151 1576.151
0.16 --undefined-- 5.020 2458.558 2458.558
0.17 --undefined-- 3.644 2648.233 2648.233
0.18 --undefined-- 0.634 1988.636 1988.636
0.19 --undefined-- 1.036 2452.157 2452.157
0.20 --undefined-- 1.701 2473.461 2473.461
0.21 --undefined-- 1.082 2347.439 2347.439
0.22 --undefined-- 0.842 2463.171 2463.171
0.23 --undefined-- 0.796 2159.601 2159.601
0.24 --undefined-- 3.355 2391.856 2391.856
0.25 --undefined-- 5.799 2638.622 2638.622
0.26 --undefined-- 5.376 2280.058 2280.058
0.27 --undefined-- 5.607 2586.799 2586.799
0.28 --undefined-- 5.521 2296.747 2296.747
0.29 --undefined-- 2.536 2396.314 2396.314
0.30 --undefined-- 2.976 2818.909 2818.909
0.31 --undefined-- 2.678 1954.407 1954.407
0.32 --undefined-- 0.661 2310.470 2310.470
0.33 --undefined-- 2.382 2585.364 2585.364
0.34 --undefined-- 1.856 2078.975 2078.975
0.35 --undefined-- 2.450 2403.297 2403.297
0.36 --undefined-- 3.639 1876.168 1876.168
0.37 --undefined-- 2.085 2744.828 2744.828
0.38 --undefined-- 2.102 2388.246 2388.246
0.39 --undefined-- 5.139 2691.001 2691.001
0.40 --undefined-- 5.808 2679.294 2679.294
0.41 --undefined-- 4.092 2426.996 2426.996
0.42 --undefined-- 7.092 1625.035 1625.035
0.43 --undefined-- 6.094 2530.522 2530.522
0.44 --undefined-- 8.364 2581.931 2581.931
0.45 --undefined-- 9.279 2785.094 2785.094
0.46 --undefined-- 10.104 2849.637 2849.637
0.47 --undefined-- 11.776 2680.245 2680.245
0.48 --undefined-- 11.011 2401.286 2401.286
0.49 --undefined-- 13.520 2517.426 2517.426
0.50 --undefined-- 12.113 2540.145 2540.145
0.51 --undefined-- 14.224 2344.925 2344.925
0.52 --undefined-- 16.583 2252.049 2252.049
0.53 --undefined-- 14.242 2628.291 2628.291
0.54 --undefined-- 16.650 2467.311 2467.311
0.55 --undefined-- 17.429 2526.732 2526.732
0.56 --undefined-- 14.644 2594.701 2594.701
0.57 --undefined-- 15.949 2474.409 2474.409
0.58 --undefined-- 16.117 2598.123 2598.123
0.59 --undefined-- 12.929 2798.479 2798.479
0.60 --undefined-- 11.693 2539.586 2539.586
0.61 --undefined-- 12.402 2548.883 2548.883
0.62 --undefined-- 11.753 2846.725 2846.725
0.63 --undefined-- 9.801 2519.466 2519.466
0.64 --undefined-- 9.336 2367.921 2367.921
0.65 --undefined-- 12.456 2421.188 2421.188
0.66 --undefined-- 13.679 2461.859 2461.859
0.67 --undefined-- 11.498 2435.953 2435.953
0.68 --undefined-- 10.969 2318.997 2318.997
0.69 --undefined-- 13.144 2398.378 2398.378
0.70 --undefined-- 13.876 2196.448 2196.448
0.71 --undefined-- 12.583 2205.511 2205.511
0.72 --undefined-- 14.009 2489.812 2489.812
0.73 --undefined-- 16.019 2293.752 2293.752
0.74 --undefined-- 14.240 2247.191 2247.191
0.75 --undefined-- 13.260 2576.831 2576.831
0.76 --undefined-- 14.000 2438.996 2438.996
0.77 --undefined-- 10.605 2336.905 2336.905
0.78 --undefined-- 7.729 1972.769 1972.769
0.79 --undefined-- 8.141 2619.416 2619.416
0.80 --undefined-- 8.416 2906.258 2906.258
0.81 --undefined-- 8.916 2454.751 2454.751
0.82 --undefined-- 9.029 2525.256 2525.256
0.83 --undefined-- 10.707 2525.860 2525.860
0.84 --undefined-- 12.363 2469.609 2469.609
0.85 --undefined-- 11.611 2438.863 2438.863
0.86 --undefined-- 12.102 2570.110 2570.110
0.87 --undefined-- 12.026 2344.781 2344.781
0.88 --undefined-- 8.011 1747.130 1747.130
0.89 --undefined-- 11.864 1965.453 1965.453
0.90 --undefined-- 11.865 2383.865 2383.865
0.91 --undefined-- 13.748 2562.818 2562.818
0.92 --undefined-- 16.907 2740.635 2740.635
0.93 --undefined-- 15.259 2641.425 2641.425
0.94 --undefined-- 16.391 2474.634 2474.634
0.95 --undefined-- 17.389 2334.405 2334.405
0.96 --undefined-- 13.993 2582.878 2582.878
0.97 --undefined-- 14.714 2488.657 2488.657
0.98 --undefined-- 15.245 2488.681 2488.681
0.99 --undefined-- 11.684 1851.224 1851.224
1.00 --undefined-- 10.449 2486.756 2486.756
1.01 --undefined-- 10.291 2849.988 2849.988
1.02 --undefined-- 6.414 2263.980 2263.980
1.03 --undefined-- 3.501 1885.681 1885.681
1.04 --undefined-- 2.273 1852.324 1852.324
1.05 --undefined-- 2.290 2679.722 2679.722
1.06 --undefined-- 7.605 1988.564 1988.564
1.07 --undefined-- 13.871 1637.732 1637.732
1.08 --undefined-- 21.845 1602.021 1602.021
1.09 77.995 27.506 1601.921 1601.921
1.10 --undefined-- 30.801 1616.497 1616.497
1.11 233.830 33.381 1530.464 1530.464
1.12 238.405 35.456 1570.136 1570.136
1.13 250.633 35.795 1715.456 1715.456
1.14 257.331 35.986 1654.309 1654.309
1.15 259.007 36.258 1621.155 1621.155
1.16 259.439 36.212 1576.860 1576.860
1.17 259.370 35.873 1541.110 1541.110
1.18 260.181 35.295 1459.361 1459.361
1.19 260.333 34.860 1472.644 1472.644
1.20 260.322 34.625 1398.613 1398.613
1.21 259.584 34.413 1556.537 1556.537
1.22 259.175 34.378 1823.021 1823.021
1.23 259.049 34.346 1529.892 1529.892
1.24 259.378 34.122 1524.076 1524.076
1.25 259.105 33.957 1594.312 1594.312
1.26 258.623 34.035 1474.514 1474.514
1.27 258.707 33.903 1554.010 1554.010
1.28 258.625 33.658 1536.217 1536.217
1.29 257.765 33.715 1516.222 1516.222
1.30 257.868 33.998 1504.170 1504.170
1.31 257.953 34.284 1479.948 1479.948
1.32 257.838 34.391 1488.551 1488.551
1.33 257.295 34.215 1478.201 1478.201
1.34 257.331 34.163 1502.882 1502.882
1.35 257.149 34.089 1469.986 1469.986
1.36 257.607 34.120 1468.922 1468.922
1.37 257.799 33.894 1504.504 1504.504
1.38 257.381 33.587 1568.009 1568.009
1.39 257.107 33.513 1699.764 1699.764
1.40 257.084 33.610 1535.250 1535.250
1.41 257.185 33.952 1500.056 1500.056
1.42 257.224 33.931 1485.428 1485.428
1.43 257.284 33.889 1481.792 1481.792
1.44 256.860 33.905 1481.080 1481.080
1.45 256.834 33.925 1509.800 1509.800
1.46 256.819 33.982 1481.544 1481.544
1.47 256.639 34.008 1489.304 1489.304
1.48 256.413 33.823 1476.418 1476.418
1.49 256.061 33.794 1483.773 1483.773
1.50 256.546 33.589 1482.234 1482.234
1.51 255.681 33.337 1505.064 1505.064
1.52 255.683 33.183 1529.137 1529.137
1.53 254.239 33.487 1483.591 1483.591
1.54 254.252 34.041 1491.369 1491.369
1.55 254.575 33.890 1482.147 1482.147
1.56 255.056 33.713 1507.894 1507.894
1.57 254.617 33.464 1501.366 1501.366
1.58 254.470 33.029 1476.578 1476.578
1.59 254.859 32.971 1506.621 1506.621
1.60 255.765 33.114 1497.089 1497.089
1.61 255.411 33.234 1501.551 1501.551
1.62 255.571 33.019 1509.111 1509.111
1.63 256.092 32.817 1493.285 1493.285
1.64 256.242 32.819 1503.914 1503.914
1.65 256.146 32.828 1503.160 1503.160
1.66 256.449 32.631 1513.675 1513.675
1.67 256.255 32.245 1511.042 1511.042
1.68 256.009 32.314 1499.980 1499.980
1.69 256.302 32.503 1516.193 1516.193
1.70 256.897 32.514 1518.829 1518.829
1.71 257.265 32.781 1507.109 1507.109
1.72 256.642 32.878 1515.451 1515.451
1.73 256.192 32.763 1516.228 1516.228
1.74 256.764 32.453 1525.710 1525.710
1.75 257.520 32.184 1532.164 1532.164
1.76 257.951 32.248 1521.275 1521.275
1.77 257.955 32.278 1528.790 1528.790
1.78 258.170 32.377 1503.808 1503.808
1.79 258.529 32.541 1534.814 1534.814
1.80 258.359 32.465 1520.337 1520.337
1.81 258.566 32.203 1525.354 1525.354
1.82 258.787 32.003 1516.234 1516.234
1.83 259.156 32.191 1529.181 1529.181
1.84 258.849 32.080 1525.302 1525.302
1.85 258.752 31.777 1519.296 1519.296
1.86 258.560 31.812 1508.469 1508.469
1.87 258.735 31.742 1527.798 1527.798
1.88 258.729 31.647 1534.425 1534.425
1.89 258.361 31.562 1526.460 1526.460
1.90 258.126 31.608 1507.814 1507.814
1.91 258.125 31.797 1524.588 1524.588
1.92 258.002 31.856 1525.316 1525.316
1.93 258.333 31.803 1514.385 1514.385
1.94 258.077 31.655 1521.325 1521.325
1.95 258.561 31.500 1525.803 1525.803
1.96 258.943 31.674 1542.675 1542.675
1.97 258.478 31.700 1544.193 1544.193
1.98 258.549 31.804 1556.030 1556.030
1.99 258.075 32.221 1547.372 1547.372
2.00 257.354 32.491 1545.847 1545.847
2.01 258.081 32.566 1553.881 1553.881
2.02 258.619 32.537 1573.896 1573.896
2.03 258.713 32.512 1582.140 1582.140
2.04 258.379 32.504 1546.707 1546.707
2.05 257.748 32.314 1542.519 1542.519
2.06 257.336 32.089 1537.625 1537.625
2.07 257.381 31.885 1540.334 1540.334
2.08 257.095 31.813 1566.878 1566.878
2.09 256.812 31.895 1549.561 1549.561
2.10 256.648 31.925 1535.206 1535.206
2.11 257.302 31.888 1524.191 1524.191
2.12 258.019 31.870 1530.260 1530.260
2.13 258.596 31.771 1546.350 1546.350
2.14 258.641 31.556 1523.510 1523.510
2.15 258.557 31.120 1509.167 1509.167
2.16 259.100 30.668 1513.906 1513.906
2.17 259.656 30.214 1585.552 1585.552
2.18 260.429 30.057 1625.842 1625.842
2.19 260.842 30.129 1635.374 1635.374
2.20 260.215 30.130 1571.362 1571.362
2.21 259.619 30.272 1508.978 1508.978
2.22 259.073 30.357 1530.620 1530.620
2.23 259.239 30.455 1576.923 1576.923
2.24 259.788 30.600 1558.353 1558.353
2.25 259.796 30.462 1602.537 1602.537
2.26 259.563 30.462 1569.488 1569.488
2.27 259.252 30.669 1572.530 1572.530
2.28 259.444 30.824 1528.305 1528.305
2.29 260.042 30.963 1545.245 1545.245
2.30 259.662 31.054 1543.885 1543.885
2.31 259.231 31.261 1531.667 1531.667
2.32 258.593 31.288 1541.950 1541.950
2.33 257.936 31.471 1516.984 1516.984
2.34 258.536 31.539 1538.023 1538.023
2.35 258.622 31.712 1532.645 1532.645
2.36 258.674 31.990 1542.357 1542.357
2.37 258.285 32.511 1522.197 1522.197
2.38 257.909 32.726 1528.285 1528.285
2.39 257.352 32.372 1530.030 1530.030
2.40 257.129 32.233 1496.797 1496.797
2.41 257.425 32.576 1528.165 1528.165
2.42 257.090 32.651 1525.152 1525.152
2.43 256.872 32.517 1508.977 1508.977
2.44 257.227 32.494 1522.241 1522.241
2.45 257.334 32.766 1522.637 1522.637
2.46 257.340 32.718 1521.933 1521.933
2.47 256.891 32.483 1519.055 1519.055
2.48 256.558 32.392 1515.347 1515.347
2.49 256.347 32.198 1519.863 1519.863
2.50 255.760 32.137 1523.311 1523.311
2.51 255.587 32.142 1503.243 1503.243
2.52 255.920 32.244 1514.022 1514.022
2.53 256.076 32.290 1516.183 1516.183
2.54 256.010 32.273 1512.546 1512.546
2.55 255.862 32.418 1504.460 1504.460
2.56 255.738 32.381 1520.168 1520.168
2.57 256.458 32.393 1490.962 1490.962
2.58 256.706 32.198 1518.851 1518.851
2.59 256.012 32.004 1487.533 1487.533
2.60 256.478 32.293 1501.233 1501.233
2.61 256.663 32.506 1513.257 1513.257
2.62 256.284 32.315 1498.546 1498.546
2.63 255.834 32.171 1496.768 1496.768
2.64 255.737 32.335 1520.236 1520.236
2.65 255.148 32.313 1498.544 1498.544
2.66 255.484 32.265 1508.144 1508.144
2.67 255.061 32.409 1503.503 1503.503
2.68 255.189 32.337 1511.522 1511.522
2.69 255.257 32.367 1503.989 1503.989
2.70 254.833 32.345 1500.816 1500.816
2.71 254.909 32.226 1494.272 1494.272
2.72 254.938 32.187 1499.264 1499.264
2.73 254.738 32.155 1508.730 1508.730
2.74 254.385 31.962 1508.089 1508.089
2.75 253.924 31.885 1502.357 1502.357
2.76 253.579 31.849 1509.639 1509.639
2.77 253.453 31.595 1504.104 1504.104
2.78 254.007 31.210 1498.788 1498.788
2.79 254.687 31.269 1518.009 1518.009
2.80 254.073 31.591 1504.907 1504.907
2.81 253.918 31.851 1501.958 1501.958
2.82 254.205 31.444 1509.029 1509.029
2.83 254.469 31.010 1498.418 1498.418
2.84 255.555 30.826 1525.458 1525.458
2.85 255.294 30.469 1525.970 1525.970
2.86 254.750 30.403 1506.976 1506.976
2.87 255.037 30.595 1509.644 1509.644
2.88 255.373 30.521 1520.811 1520.811
2.89 255.343 30.501 1519.157 1519.157
2.90 255.860 30.627 1528.684 1528.684
2.91 255.711 30.749 1530.892 1530.892
2.92 255.886 30.562 1523.542 1523.542
2.93 256.288 30.642 1513.601 1513.601
2.94 256.978 30.960 1538.455 1538.455
2.95 256.913 --undefined-- --undefined-- --undefined--
2.96 --undefined-- --undefined-- --undefined-- --undefined--
2.97 --undefined-- --undefined-- --undefined-- --undefined--
0.01 --undefined-- --undefined-- --undefined-- --undefined--
0.02 --undefined-- --undefined-- --undefined-- --undefined--
0.03 --undefined-- --undefined-- 2558.753 2558.753
0.04 --undefined-- 7.754 2418.323 2418.323
0.05 --undefined-- 7.830 2548.204 2548.204
0.06 --undefined-- 5.460 2621.294 2621.294
0.07 --undefined-- 6.232 2620.402 2620.402
0.08 --undefined-- 7.477 2591.845 2591.845
0.09 --undefined-- 4.875 2597.684 2597.684
0.10 --undefined-- 6.295 2509.665 2509.665
0.11 --undefined-- 8.065 2544.676 2544.676
0.12 --undefined-- 5.852 2574.658 2574.658
0.13 --undefined-- 7.770 2718.432 2718.432
0.14 --undefined-- 7.429 2901.726 2901.726
0.15 --undefined-- 4.799 1576.151 1576.151
0.16 --undefined-- 5.020 2458.558 2458.558
0.17 --undefined-- 3.644 2648.233 2648.233
0.18 --undefined-- 0.634 1988.636 1988.636
0.19 --undefined-- 1.036 2452.157 2452.157
0.20 --undefined-- 1.701 2473.461 2473.461
0.21 --undefined-- 1.082 2347.439 2347.439
0.22 --undefined-- 0.842 2463.171 2463.171
0.23 --undefined-- 0.796 2159.601 2159.601
0.24 --undefined-- 3.355 2391.856 2391.856
0.25 --undefined-- 5.799 2638.622 2638.622
0.26 --undefined-- 5.376 2280.058 2280.058
0.27 --undefined-- 5.607 2586.799 2586.799
0.28 --undefined-- 5.521 2296.747 2296.747
0.29 --undefined-- 2.536 2396.314 2396.314
0.30 --undefined-- 2.976 2818.909 2818.909
0.31 --undefined-- 2.678 1954.407 1954.407
0.32 --undefined-- 0.661 2310.470 2310.470
0.33 --undefined-- 2.382 2585.364 2585.364
0.34 --undefined-- 1.856 2078.975 2078.975
0.35 --undefined-- 2.450 2403.297 2403.297
0.36 --undefined-- 3.639 1876.168 1876.168
0.37 --undefined-- 2.085 2744.828 2744.828
0.38 --undefined-- 2.102 2388.246 2388.246
0.39 --undefined-- 5.139 2691.001 2691.001
0.40 --undefined-- 5.808 2679.294 2679.294
0.41 --undefined-- 4.092 2426.996 2426.996
0.42 --undefined-- 7.092 1625.035 1625.035
0.43 --undefined-- 6.094 2530.522 2530.522
0.44 --undefined-- 8.364 2581.931 2581.931
0.45 --undefined-- 9.279 2785.094 2785.094
0.46 --undefined-- 10.104 2849.637 2849.637
0.47 --undefined-- 11.776 2680.245 2680.245
0.48 --undefined-- 11.011 2401.286 2401.286
0.49 --undefined-- 13.520 2517.426 2517.426
0.50 --undefined-- 12.113 2540.145 2540.145
0.51 --undefined-- 14.224 2344.925 2344.925
0.52 --undefined-- 16.583 2252.049 2252.049
0.53 --undefined-- 14.242 2628.291 2628.291
0.54 --undefined-- 16.650 2467.311 2467.311
0.55 --undefined-- 17.429 2526.732 2526.732
0.56 --undefined-- 14.644 2594.701 2594.701
0.57 --undefined-- 15.949 2474.409 2474.409
0.58 --undefined-- 16.117 2598.123 2598.123
0.59 --undefined-- 12.929 2798.479 2798.479
0.60 --undefined-- 11.693 2539.586 2539.586
0.61 --undefined-- 12.402 2548.883 2548.883
0.62 --undefined-- 11.753 2846.725 2846.725
0.63 --undefined-- 9.801 2519.466 2519.466
0.64 --undefined-- 9.336 2367.921 2367.921
0.65 --undefined-- 12.456 2421.188 2421.188
0.66 --undefined-- 13.679 2461.859 2461.859
0.67 --undefined-- 11.498 2435.953 2435.953
0.68 --undefined-- 10.969 2318.997 2318.997
0.69 --undefined-- 13.144 2398.378 2398.378
0.70 --undefined-- 13.876 2196.448 2196.448
0.71 --undefined-- 12.583 2205.511 2205.511
0.72 --undefined-- 14.009 2489.812 2489.812
0.73 --undefined-- 16.019 2293.752 2293.752
0.74 --undefined-- 14.240 2247.191 2247.191
0.75 --undefined-- 13.260 2576.831 2576.831
0.76 --undefined-- 14.000 2438.996 2438.996
0.77 --undefined-- 10.605 2336.905 2336.905
0.78 --undefined-- 7.729 1972.769 1972.769
0.79 --undefined-- 8.141 2619.416 2619.416
0.80 --undefined-- 8.416 2906.258 2906.258
0.81 --undefined-- 8.916 2454.751 2454.751
0.82 --undefined-- 9.029 2525.256 2525.256
0.83 --undefined-- 10.707 2525.860 2525.860
0.84 --undefined-- 12.363 2469.609 2469.609
0.85 --undefined-- 11.611 2438.863 2438.863
0.86 --undefined-- 12.102 2570.110 2570.110
0.87 --undefined-- 12.026 2344.781 2344.781
0.88 --undefined-- 8.011 1747.130 1747.130
0.89 --undefined-- 11.864 1965.453 1965.453
0.90 --undefined-- 11.865 2383.865 2383.865
0.91 --undefined-- 13.748 2562.818 2562.818
0.92 --undefined-- 16.907 2740.635 2740.635
0.93 --undefined-- 15.259 2641.425 2641.425
0.94 --undefined-- 16.391 2474.634 2474.634
0.95 --undefined-- 17.389 2334.405 2334.405
0.96 --undefined-- 13.993 2582.878 2582.878
0.97 --undefined-- 14.714 2488.657 2488.657
0.98 --undefined-- 15.245 2488.681 2488.681
0.99 --undefined-- 11.684 1851.224 1851.224
1.00 --undefined-- 10.449 2486.756 2486.756
1.01 --undefined-- 10.291 2849.988 2849.988
1.02 --undefined-- 6.414 2263.980 2263.980
1.03 --undefined-- 3.501 1885.681 1885.681
1.04 --undefined-- 2.273 1852.324 1852.324
1.05 --undefined-- 2.290 2679.722 2679.722
1.06 --undefined-- 7.605 1988.564 1988.564
1.07 --undefined-- 13.871 1637.732 1637.732
1.08 --undefined-- 21.845 1602.021 1602.021
1.09 77.995 27.506 1601.921 1601.921
1.10 --undefined-- 30.801 1616.497 1616.497
1.11 233.830 33.381 1530.464 1530.464
1.12 238.405 35.456 1570.136 1570.136
1.13 250.633 35.795 1715.456 1715.456
1.14 257.331 35.986 1654.309 1654.309
1.15 259.007 36.258 1621.155 1621.155
1.16 259.439 36.212 1576.860 1576.860
1.17 259.370 35.873 1541.110 1541.110
1.18 260.181 35.295 1459.361 1459.361
1.19 260.333 34.860 1472.644 1472.644
1.20 260.322 34.625 1398.613 1398.613
1.21 259.584 34.413 1556.537 1556.537
1.22 259.175 34.378 1823.021 1823.021
1.23 259.049 34.346 1529.892 1529.892
1.24 259.378 34.122 1524.076 1524.076
1.25 259.105 33.957 1594.312 1594.312
1.26 258.623 34.035 1474.514 1474.514
1.27 258.707 33.903 1554.010 1554.010
1.28 258.625 33.658 1536.217 1536.217
1.29 257.765 33.715 1516.222 1516.222
1.30 257.868 33.998 1504.170 1504.170
1.31 257.953 34.284 1479.948 1479.948
1.32 257.838 34.391 1488.551 1488.551
1.33 257.295 34.215 1478.201 1478.201
1.34 257.331 34.163 1502.882 1502.882
1.35 257.149 34.089 1469.986 1469.986
1.36 257.607 34.120 1468.922 1468.922
1.37 257.799 33.894 1504.504 1504.504
1.38 257.381 33.587 1568.009 1568.009
1.39 257.107 33.513 1699.764 1699.764
1.40 257.084 33.610 1535.250 1535.250
1.41 257.185 33.952 1500.056 1500.056
1.42 257.224 33.931 1485.428 1485.428
1.43 257.284 33.889 1481.792 1481.792
1.44 256.860 33.905 1481.080 1481.080
1.45 256.834 33.925 1509.800 1509.800
1.46 256.819 33.982 1481.544 1481.544
1.47 256.639 34.008 1489.304 1489.304
1.48 256.413 33.823 1476.418 1476.418
1.49 256.061 33.794 1483.773 1483.773
1.50 256.546 33.589 1482.234 1482.234
1.51 255.681 33.337 1505.064 1505.064
1.52 255.683 33.183 1529.137 1529.137
1.53 254.239 33.487 1483.591 1483.591
1.54 254.252 34.041 1491.369 1491.369
1.55 254.575 33.890 1482.147 1482.147
1.56 255.056 33.713 1507.894 1507.894
1.57 254.617 33.464 1501.366 1501.366
1.58 254.470 33.029 1476.578 1476.578
1.59 254.859 32.971 1506.621 1506.621
1.60 255.765 33.114 1497.089 1497.089
1.61 255.411 33.234 1501.551 1501.551
1.62 255.571 33.019 1509.111 1509.111
1.63 256.092 32.817 1493.285 1493.285
1.64 256.242 32.819 1503.914 1503.914
1.65 256.146 32.828 1503.160 1503.160
1.66 256.449 32.631 1513.675 1513.675
1.67 256.255 32.245 1511.042 1511.042
1.68 256.009 32.314 1499.980 1499.980
1.69 256.302 32.503 1516.193 1516.193
1.70 256.897 32.514 1518.829 1518.829
1.71 257.265 32.781 1507.109 1507.109
1.72 256.642 32.878 1515.451 1515.451
1.73 256.192 32.763 1516.228 1516.228
1.74 256.764 32.453 1525.710 1525.710
1.75 257.520 32.184 1532.164 1532.164
1.76 257.951 32.248 1521.275 1521.275
1.77 257.955 32.278 1528.790 1528.790
1.78 258.170 32.377 1503.808 1503.808
1.79 258.529 32.541 1534.814 1534.814
1.80 258.359 32.465 1520.337 1520.337
1.81 258.566 32.203 1525.354 1525.354
1.82 258.787 32.003 1516.234 1516.234
1.83 259.156 32.191 1529.181 1529.181
1.84 258.849 32.080 1525.302 1525.302
1.85 258.752 31.777 1519.296 1519.296
1.86 258.560 31.812 1508.469 1508.469
1.87 258.735 31.742 1527.798 1527.798
1.88 258.729 31.647 1534.425 1534.425
1.89 258.361 31.562 1526.460 1526.460
1.90 258.126 31.608 1507.814 1507.814
1.91 258.125 31.797 1524.588 1524.588
1.92 258.002 31.856 1525.316 1525.316
1.93 258.333 31.803 1514.385 1514.385
1.94 258.077 31.655 1521.325 1521.325
1.95 258.561 31.500 1525.803 1525.803
1.96 258.943 31.674 1542.675 1542.675
1.97 258.478 31.700 1544.193 1544.193
1.98 258.549 31.804 1556.030 1556.030
1.99 258.075 32.221 1547.372 1547.372
2.00 257.354 32.491 1545.847 1545.847
2.01 258.081 32.566 1553.881 1553.881
2.02 258.619 32.537 1573.896 1573.896
2.03 258.713 32.512 1582.140 1582.140
2.04 258.379 32.504 1546.707 1546.707
2.05 257.748 32.314 1542.519 1542.519
2.06 257.336 32.089 1537.625 1537.625
2.07 257.381 31.885 1540.334 1540.334
2.08 257.095 31.813 1566.878 1566.878
2.09 256.812 31.895 1549.561 1549.561
2.10 256.648 31.925 1535.206 1535.206
2.11 257.302 31.888 1524.191 1524.191
2.12 258.019 31.870 1530.260 1530.260
2.13 258.596 31.771 1546.350 1546.350
2.14 258.641 31.556 1523.510 1523.510
2.15 258.557 31.120 1509.167 1509.167
2.16 259.100 30.668 1513.906 1513.906
2.17 259.656 30.214 1585.552 1585.552
2.18 260.429 30.057 1625.842 1625.842
2.19 260.842 30.129 1635.374 1635.374
2.20 260.215 30.130 1571.362 1571.362
2.21 259.619 30.272 1508.978 1508.978
2.22 259.073 30.357 1530.620 1530.620
2.23 259.239 30.455 1576.923 1576.923
2.24 259.788 30.600 1558.353 1558.353
2.25 259.796 30.462 1602.537 1602.537
2.26 259.563 30.462 1569.488 1569.488
2.27 259.252 30.669 1572.530 1572.530
2.28 259.444 30.824 1528.305 1528.305
2.29 260.042 30.963 1545.245 1545.245
2.30 259.662 31.054 1543.885 1543.885
2.31 259.231 31.261 1531.667 1531.667
2.32 258.593 31.288 1541.950 1541.950
2.33 257.936 31.471 1516.984 1516.984
2.34 258.536 31.539 1538.023 1538.023
2.35 258.622 31.712 1532.645 1532.645
2.36 258.674 31.990 1542.357 1542.357
2.37 258.285 32.511 1522.197 1522.197
2.38 257.909 32.726 1528.285 1528.285
2.39 257.352 32.372 1530.030 1530.030
2.40 257.129 32.233 1496.797 1496.797
2.41 257.425 32.576 1528.165 1528.165
2.42 257.090 32.651 1525.152 1525.152
2.43 256.872 32.517 1508.977 1508.977
2.44 257.227 32.494 1522.241 1522.241
2.45 257.334 32.766 1522.637 1522.637
2.46 257.340 32.718 1521.933 1521.933
2.47 256.891 32.483 1519.055 1519.055
2.48 256.558 32.392 1515.347 1515.347
2.49 256.347 32.198 1519.863 1519.863
2.50 255.760 32.137 1523.311 1523.311
2.51 255.587 32.142 1503.243 1503.243
2.52 255.920 32.244 1514.022 1514.022
2.53 256.076 32.290 1516.183 1516.183
2.54 256.010 32.273 1512.546 1512.546
2.55 255.862 32.418 1504.460 1504.460
2.56 255.738 32.381 1520.168 1520.168
2.57 256.458 32.393 1490.962 1490.962
2.58 256.706 32.198 1518.851 1518.851
2.59 256.012 32.004 1487.533 1487.533
2.60 256.478 32.293 1501.233 1501.233
2.61 256.663 32.506 1513.257 1513.257
2.62 256.284 32.315 1498.546 1498.546
2.63 255.834 32.171 1496.768 1496.768
2.64 255.737 32.335 1520.236 1520.236
2.65 255.148 32.313 1498.544 1498.544
2.66 255.484 32.265 1508.144 1508.144
2.67 255.061 32.409 1503.503 1503.503
2.68 255.189 32.337 1511.522 1511.522
2.69 255.257 32.367 1503.989 1503.989
2.70 254.833 32.345 1500.816 1500.816
2.71 254.909 32.226 1494.272 1494.272
2.72 254.938 32.187 1499.264 1499.264
2.73 254.738 32.155 1508.730 1508.730
2.74 254.385 31.962 1508.089 1508.089
2.75 253.924 31.885 1502.357 1502.357
2.76 253.579 31.849 1509.639 1509.639
2.77 253.453 31.595 1504.104 1504.104
2.78 254.007 31.210 1498.788 1498.788
2.79 254.687 31.269 1518.009 1518.009
2.80 254.073 31.591 1504.907 1504.907
2.81 253.918 31.851 1501.958 1501.958
2.82 254.205 31.444 1509.029 1509.029
2.83 254.469 31.010 1498.418 1498.418
2.84 255.555 30.826 1525.458 1525.458
2.85 255.294 30.469 1525.970 1525.970
2.86 254.750 30.403 1506.976 1506.976
2.87 255.037 30.595 1509.644 1509.644
2.88 255.373 30.521 1520.811 1520.811
2.89 255.343 30.501 1519.157 1519.157
2.90 255.860 30.627 1528.684 1528.684
2.91 255.711 30.749 1530.892 1530.892
2.92 255.886 30.562 1523.542 1523.542
2.93 256.288 30.642 1513.601 1513.601
2.94 256.978 30.960 1538.455 1538.455
2.95 256.913 --undefined-- --undefined-- --undefined--
2.96 --undefined-- --undefined-- --undefined-- --undefined--
2.97 --undefined-- --undefined-- --undefined-- --undefined--
